# Au197 Maxwellian-Averaged Cross Sections (MACS)
# REF https://doi.org/10.1103/PhysRevC.83.034608
# Cross sections and uncertainties in millibarns (mb)
# kT [keV]	n_TOF [mb]	± uncertainty [mb]
6.0	1729	61
7.0	1550	54
8.0	1412	49
9.0	1302	46
10.0	1212	42
12.5	1044	37
15.0	927	33
17.5	841	30
20.0	775	27
25.0	678	24
30.0	611	22
35.0	560	20
40.0	521	18
45.0	490	17
50.0	464	16
60.0	423	14
70.0	392	13
85.0	357	12
100.0	330	10